T (K)	rhol (kg/m3)	urho (kg/m3)
173.185	1616	5
183.091	1575	5
193.095	1533	5
196.895	1519	0.5
203.095	1492	5
213.096	1450	5
223.088	1409	5
233.082	1368	5
243.074	1325	5
253.067	1274	5
263.06	1216	5
273.107	1151	5
281.114	1093	5
283.118	1078	5
293.223	972	5
303.432	815	5
306.883	580	10
306.883	584.3	7.7
